Beta,Energy,Energy Squared,Magnetization,Magnetization Squared,Absolute Magnetization,Specific Heat,Susceptibility,Cluster Size,Non-Wrapping Cluster Size,Wrapping Probability,Dominant Frequency,Dominant Amplitude,Rho T,Unique Families,Overlap,Absolute Overlap,Overlap Variance,Free Energy
0.00437534,-0.00853924,2.14844,0.00382755,1.04842,0.0253793,3.96996e-05,0.00170137,0.988806,0.988349,0,0.216551,1.83564,1.16921,4647,0.000380601,0.0252763,0.000362769,0.0239182
0.00873877,-0.0163489,2.21399,0.000870798,1.01974,0.025185,0.000148172,0.00323541,1.00574,1.00531,0,0.213423,1.82997,1.323,4371,0.000170399,0.0248567,0.000367446,0.0823361
0.0131683,-0.0260319,2.64495,0.000275055,1.07117,0.0259598,0.000338318,0.00501826,1.02456,1.02418,0,0.211965,1.83753,1.47291,4104,0.000109388,0.0250323,0.000359735,0.175985
0.017626,-0.0360287,3.33338,0.000409219,1.08532,0.0260605,0.000622647,0.00687192,1.04356,1.04323,0,0.207047,1.85613,1.63653,3860,-0.000453319,0.0249357,0.000356147,0.314676
0.0220681,-0.0440055,4.04352,-7.9138e-06,1.06123,0.0257744,0.00100349,0.00840723,1.06246,1.06224,0,0.205056,1.86559,1.78582,3676,-0.00015511,0.0248121,0.00035242,0.498818
0.0264714,-0.0526899,4.86247,-0.000363483,1.12074,0.0262866,0.00141521,0.0109372,1.08241,1.08203,0,0.203341,1.88639,1.9673,3493,6.03159e-05,0.0246867,0.000359715,0.717706
0.0308778,-0.0625702,6.03915,0.000181037,1.15421,0.0267153,0.00193563,0.0130727,1.10349,1.1034,0,0.202181,1.8936,2.13752,3324,0.000355694,0.0246362,0.00034107,0.975547
0.03528,-0.0707815,7.16724,-0.000284582,1.17025,0.0270075,0.00253539,0.0149356,1.12388,1.12368,0,0.198184,1.88963,2.29424,3201,-0.000804462,0.0251052,0.000351357,1.27768
0.0396765,-0.0801362,8.60127,0.000460448,1.17008,0.0270026,0.00318834,0.0168006,1.14509,1.14499,0,0.199976,1.89961,2.46438,3070,0.000787691,0.0243103,0.000348776,1.61652
0.0440764,-0.0884606,10.0286,-0.00061713,1.23912,0.0277574,0.00391556,0.0198411,1.16892,1.16883,0,0.196234,1.92438,2.60759,2969,-0.000233947,0.0248107,0.000354337,1.99774
0.0484834,-0.0970632,11.7214,-0.00052426,1.22201,0.0273517,0.0048753,0.0221057,1.19079,1.19048,0,0.194357,1.92693,2.74918,2874,0.000504887,0.0248225,0.000348956,2.41695
0.0528623,-0.106149,13.6068,0.000288022,1.24125,0.0278608,0.00578073,0.0235979,1.21438,1.21415,0,0.193532,1.93282,2.93357,2768,-0.000224194,0.024864,0.000346005,2.87257
0.0572302,-0.115861,15.8518,-5.61243e-06,1.29519,0.0282393,0.00689769,0.0273898,1.23789,1.238,0,0.1858,1.94981,3.11842,2682,-2.76613e-05,0.025019,0.000361828,3.36757
0.061573,-0.12386,17.8157,0.000260978,1.30082,0.0283416,0.0079853,0.0294505,1.26295,1.26311,0,0.187737,1.96017,3.31601,2591,0.000641821,0.0250984,0.000355636,3.90317
0.0659033,-0.132165,19.9801,0.000571912,1.35948,0.0291304,0.00909152,0.0323276,1.29155,1.29159,0,0.181406,1.97209,3.47049,2523,0.000314773,0.0246293,0.000350165,4.47274
0.0702341,-0.140987,22.3614,0.00111076,1.35254,0.0290358,0.0099001,0.0343605,1.3181,1.31791,0,0.179979,1.98278,3.60027,2466,0.000293858,0.0244622,0.000345678,5.079
0.0746105,-0.149642,24.9843,-9.43889e-05,1.39161,0.0295776,0.0114349,0.0369902,1.34281,1.34241,0,0.178316,1.98801,3.74153,2401,-0.000311806,0.0255266,0.000377335,5.7305
0.0789849,-0.160147,28.2358,-0.000103429,1.41836,0.0300137,0.0123093,0.0391698,1.36976,1.36985,0,0.17573,2.01246,3.90792,2338,-0.000528771,0.0247352,0.000365707,6.42093
0.083402,-0.168038,30.9945,-0.00124801,1.4158,0.0295332,0.0144681,0.0435907,1.39916,1.39919,0,0.175606,2.02204,4.07622,2294,0.000291773,0.0253037,0.000375376,7.16501
0.0877827,-0.177198,34.2455,-0.000194758,1.4608,0.0303958,0.0161252,0.0451843,1.4284,1.42853,0,0.169171,2.03451,4.3201,2247,0.000562503,0.025376,0.000374087,7.93929
0.0921389,-0.186578,37.748,-0.000536494,1.48625,0.0301508,0.0178384,0.0511702,1.46044,1.46062,0,0.168351,2.04184,4.52487,2197,-9.52357e-06,0.0251422,0.000376263,8.75003
0.0964784,-0.194836,40.9913,0.000766451,1.541,0.0310217,0.0197246,0.0535998,1.49046,1.49044,0,0.167969,2.05936,4.64741,2162,-0.000174499,0.0254163,0.00036957,9.59936
0.1008,-0.203624,44.5664,-0.000939232,1.61051,0.0319152,0.0214258,0.0572025,1.52508,1.52506,0,0.164117,2.07608,4.81256,2113,-0.000666001,0.0254863,0.000375379,10.482
0.105119,-0.214475,49.1438,-6.62482e-05,1.63846,0.0319149,0.0225456,0.0625935,1.55862,1.55925,0,0.159309,2.09578,5.07239,2072,-0.000391104,0.0253252,0.000368137,11.4027
0.109472,-0.222533,52.8887,-0.000779414,1.60683,0.031667,0.0261152,0.0634893,1.59472,1.5945,0,0.157885,2.10148,5.2419,2035,0.000518811,0.0255582,0.000371354,12.3784
0.11377,-0.23298,57.7282,-0.00114274,1.69776,0.0327006,0.0277747,0.0685758,1.63136,1.63179,0,0.156547,2.1051,5.47652,1998,0.000658805,0.025631,0.000374671,13.3783
0.118057,-0.241156,61.7385,-0.00117965,1.69318,0.0324328,0.0304738,0.0727289,1.66769,1.668,0,0.152728,2.13417,5.57293,1969,-0.000495421,0.025867,0.000375625,14.4215
0.12232,-0.250067,66.2229,-0.000496965,1.69834,0.0326825,0.0327458,0.0739495,1.70814,1.70775,0,0.150585,2.15209,5.751,1935,-1.4605e-05,0.0259871,0.000388342,15.4945
0.126569,-0.259105,70.9028,-0.000534652,1.76079,0.0330069,0.034539,0.0816601,1.74781,1.74794,0,0.148729,2.15777,6.00531,1900,-0.000613522,0.0258385,0.00037988,16.6029
0.130828,-0.268879,76.2114,-0.000216222,1.90416,0.0342581,0.0373228,0.0918902,1.78955,1.78933,0,0.14482,2.18371,6.00215,1886,0.000733412,0.0257716,0.000372557,17.7529
0.135079,-0.277321,81.0179,-0.000944766,1.92159,0.0346272,0.0413348,0.0937135,1.83309,1.83312,0,0.141973,2.19991,6.15967,1853,0.000252388,0.0259157,0.000375567,18.9436
0.139285,-0.286492,86.2186,0.00110627,1.90711,0.0345728,0.0421192,0.0951521,1.8755,1.87513,0,0.136563,2.20852,6.23133,1835,-0.000469554,0.0264508,0.00038542,20.1588
0.143515,-0.294502,91.0164,0.000470065,1.99849,0.0352374,0.0453811,0.104337,1.92125,1.92169,0,0.136525,2.22295,6.36474,1806,-0.000193649,0.0258987,0.000365257,21.4196
0.147741,-0.305093,97.5173,-0.000748249,2.03997,0.0355713,0.0480491,0.109961,1.96702,1.96696,0,0.135775,2.24615,6.55924,1781,0.000467705,0.0259802,0.000388044,22.7141
0.151965,-0.31459,103.549,0.00034416,2.04049,0.0356973,0.0509523,0.111787,2.0189,2.01896,0,0.136901,2.25931,6.63981,1756,0.00149162,0.0264483,0.000392976,24.0541
0.156187,-0.323626,109.544,-4.59051e-05,2.16009,0.0364694,0.0560124,0.124661,2.0695,2.06965,0,0.13274,2.29002,6.78921,1738,0.000416677,0.0267929,0.000416216,25.4342
0.160365,-0.334754,117.058,0.000311362,2.20111,0.0368986,0.0593653,0.129403,2.12617,2.12616,0,0.126889,2.31768,6.89686,1708,-0.000604019,0.0266298,0.000391243,26.8394
0.164516,-0.342691,122.577,-4.5132e-05,2.19182,0.0369639,0.0628285,0.130412,2.18048,2.18108,0,0.127216,2.31757,6.97489,1696,0.000452098,0.0266979,0.000409534,28.2826
0.168648,-0.352679,129.695,-0.000278014,2.28484,0.0377427,0.0662029,0.139327,2.23719,2.23761,0,0.125481,2.32434,7.14268,1674,-0.000371726,0.0265113,0.000406661,29.7529
0.172768,-0.360817,135.635,0.00145703,2.41719,0.0387477,0.0693048,0.151997,2.29452,2.29525,0,0.119306,2.37062,7.3156,1653,-7.92969e-05,0.0270613,0.000414264,31.261
0.176884,-0.371892,143.939,0.000233373,2.4009,0.0384947,0.072461,0.156275,2.35536,2.35618,0,0.119556,2.38069,7.42761,1631,0.000209487,0.0275391,0.000419803,32.802
0.181001,-0.380086,150.274,5.51285e-05,2.46663,0.0393468,0.0767056,0.159516,2.41927,2.4197,0,0.117099,2.39355,7.55113,1612,3.30771e-05,0.0272177,0.000419022,34.39
0.185107,-0.388902,157.227,7.73671e-05,2.54052,0.0398378,0.0806201,0.169444,2.48408,2.48486,0,0.116089,2.42467,7.79775,1590,-0.000793802,0.027536,0.000421531,36.0084
0.189202,-0.400376,166.593,0.000460206,2.59631,0.0401188,0.087516,0.179396,2.55508,2.55585,0,0.108759,2.44871,7.87772,1579,0.000600388,0.0270363,0.000416368,37.6597
0.193253,-0.409284,173.933,5.00095e-05,2.66407,0.0408404,0.0896081,0.18477,2.62999,2.63037,0,0.108039,2.46898,7.92875,1563,0.000317383,0.0270768,0.000422,39.3412
0.197302,-0.419765,182.92,0.000732912,2.76046,0.0414998,0.0968851,0.196688,2.70681,2.7078,0,0.10586,2.48998,8.08055,1548,-0.000477099,0.0276953,0.000433615,41.058
0.201312,-0.429403,191.301,-0.000355683,2.86639,0.0422542,0.100849,0.208986,2.78567,2.78592,0,0.103772,2.52838,8.28071,1533,0.000619704,0.0270296,0.000427559,42.802
0.205303,-0.438402,199.239,-0.000605539,2.95002,0.0427786,0.102408,0.220925,2.85858,2.85854,0,0.099954,2.54573,8.4812,1520,-0.000312687,0.0279746,0.000441685,44.5773
0.209308,-0.448153,208.2,-0.00102907,3.00557,0.0434139,0.111209,0.225124,2.94059,2.94206,0,0.100171,2.57213,8.52809,1509,5.48631e-05,0.0284543,0.000452232,46.3954
0.213277,-0.457426,216.789,0.000548609,3.12793,0.0442991,0.115023,0.238535,3.03984,3.04096,0,0.096274,2.59488,8.78057,1497,7.10653e-05,0.0283644,0.000470134,48.2372
0.217232,-0.468291,227.137,-0.000720479,3.24483,0.044849,0.121637,0.257445,3.12148,3.12211,0,0.0938127,2.63625,8.80622,1489,-8.77105e-05,0.0283054,0.000452776,50.11
0.22116,-0.476793,235.382,0.000477641,3.33072,0.0454444,0.126923,0.268921,3.22297,3.22487,0,0.0927033,2.64609,8.81852,1478,0.000502075,0.0283952,0.000463402,52.0144
0.22507,-0.487703,246.062,0.000698274,3.41363,0.0461759,0.126609,0.276891,3.32726,3.32997,0,0.091935,2.69082,8.89115,1463,0.000116575,0.0286269,0.000468433,53.9434
0.229006,-0.496717,255.201,-0.00117742,3.55463,0.0472224,0.133835,0.291102,3.42403,3.42595,0,0.0895233,2.70039,9.01201,1452,9.69138e-05,0.028656,0.000471772,55.9291
0.232936,-0.507464,266.25,-0.000572076,3.54216,0.0469106,0.138335,0.300194,3.53165,3.53318,0,0.0868585,2.73264,9.16795,1444,0.000804274,0.0289178,0.000486845,57.9481
0.236863,-0.51836,277.79,-0.00185316,3.77554,0.0486741,0.148365,0.319649,3.65592,3.65866,0,0.0854451,2.78232,9.38183,1431,0.000223853,0.0291671,0.000474326,60.0089
0.240752,-0.526667,286.75,-0.00153873,3.92087,0.049732,0.157356,0.334222,3.77663,3.77871,0,0.0831665,2.80512,9.60416,1424,0.000474598,0.0300459,0.000513882,62.0942
0.244598,-0.537524,298.574,0.000715289,3.96847,0.0496509,0.161937,0.353224,3.9047,3.90515,0,0.0832523,2.83794,9.88225,1415,-0.000555644,0.0295745,0.000499915,64.1889
0.248425,-0.548125,310.283,0.000216275,4.14632,0.0509811,0.162372,0.368878,4.0316,4.03434,0,0.0775118,2.88066,10.0429,1407,0.000708272,0.0298667,0.000517515,66.3159
0.252271,-0.559791,323.734,-0.000183791,4.27661,0.0519941,0.181195,0.380511,4.18306,4.18685,0,0.0765136,2.90607,10.0873,1399,0.000515321,0.0298334,0.000497265,68.4942
0.256048,-0.570594,336.184,0.000555563,4.55361,0.0529043,0.18304,0.432098,4.35515,4.35914,0,0.074757,2.96762,10.1728,1387,0.000416672,0.0304155,0.000537304,70.6806
0.259813,-0.579115,346.123,-0.000869695,4.26703,0.0515194,0.182302,0.402472,4.48394,4.48811,0,0.0763386,2.95854,10.2378,1375,-0.000169872,0.031006,0.00052913,72.9002
0.263601,-0.591268,360.884,-0.000179988,4.67444,0.0538698,0.201177,0.44887,4.6656,4.66944,0,0.0732593,3.02986,10.4471,1369,0.00136647,0.0307647,0.000548518,75.1667
0.267335,-0.603055,375.328,-0.000650105,4.92503,0.0553922,0.208945,0.476683,4.84234,4.8467,0,0.0708008,3.081,10.5734,1360,-0.000658136,0.0309613,0.000563588,77.4485
0.271035,-0.612518,387.083,0.0012797,5.10264,0.0560597,0.213055,0.510773,5.02392,5.02823,0,0.0687011,3.11212,10.8601,1350,0.000349777,0.031336,0.000558713,79.7535
0.274724,-0.62295,400.329,0.00102883,5.28923,0.0573695,0.222478,0.52719,5.20726,5.21191,0,0.0674982,3.13875,11.1169,1340,0.000595024,0.0309187,0.000540834,82.0879
0.278394,-0.634598,415.414,-0.000112465,5.65496,0.0593866,0.235131,0.568912,5.41412,5.42013,0,0.0658683,3.22513,11.2676,1333,0.00126873,0.0319528,0.000591344,84.449
0.282027,-0.645918,430.239,-0.00115376,5.85792,0.0600923,0.239876,0.609225,5.65829,5.66416,0,0.0640772,3.25923,11.3723,1328,-0.000530385,0.0328579,0.000612352,86.8305
0.285647,-0.65614,443.795,0.000355114,6.24785,0.0626104,0.240187,0.638055,5.88779,5.89386,0,0.061617,3.31243,11.3677,1322,0.00104095,0.0322925,0.000581336,89.2457
0.289284,-0.667484,459.149,-0.000167741,6.20079,0.0619912,0.244467,0.655417,6.10943,6.11636,0,0.0602815,3.35051,11.5587,1315,0.00103035,0.0331099,0.000628053,91.7091
0.292935,-0.677934,473.708,-0.00167365,6.57855,0.0640088,0.264561,0.698091,6.37046,6.37777,0,0.0593661,3.40544,11.8252,1308,0.00163066,0.0333679,0.000636313,94.2248
0.296545,-0.688653,488.736,0.00106188,6.50156,0.0636396,0.273579,0.698175,6.6337,6.64329,5.09531e-07,0.0585136,3.42912,11.8635,1302,-0.00035129,0.0345879,0.000685502,96.7511
0.300126,-0.699487,504.145,0.00158179,7.02431,0.0666771,0.281006,0.741843,6.93581,6.94431,0,0.0559992,3.4767,11.9265,1296,-0.000259613,0.0348034,0.000714423,99.2967
0.30369,-0.710675,520.554,0.00303595,7.54822,0.0680709,0.31114,0.851353,7.25125,7.25893,0,0.055641,3.56031,12.0749,1290,0.000536968,0.0353264,0.000684438,101.87
0.307175,-0.721854,536.814,-0.000291879,7.82605,0.0694433,0.305289,0.887103,7.54585,7.55579,0,0.0529984,3.60583,12.1792,1287,0.00115944,0.0347582,0.000694186,104.428
0.31066,-0.732419,552.527,-2.46362e-05,7.96606,0.07022,0.310157,0.906155,7.89967,7.90991,6.08184e-07,0.0530397,3.66496,12.4044,1281,0.00146767,0.03546,0.000722952,107.024
0.31415,-0.743252,568.946,0.0021247,8.17901,0.07152,0.322039,0.92396,8.27781,8.28937,6.35991e-07,0.0517259,3.70596,12.4151,1274,-0.00032579,0.0358744,0.000743332,109.661
0.31763,-0.756627,589.446,0.000298915,9.05251,0.0756159,0.325047,1.01563,8.6256,8.6392,6.59135e-07,0.0485607,3.82122,12.6908,1270,0.000142873,0.0369234,0.000776148,112.33
0.321115,-0.769967,610.521,-0.000423632,9.49834,0.0769505,0.354991,1.10298,9.12422,9.13851,0,0.0478002,3.91096,12.7692,1265,-0.000502335,0.0376061,0.000809729,115.05
0.324545,-0.7801,626.862,0.000454448,9.76742,0.0781158,0.389771,1.14204,9.60373,9.61737,7.25671e-07,0.0469839,3.9126,12.9078,1259,-3.84379e-05,0.0382697,0.000840752,117.776
0.327886,-0.792747,646.964,-4.56263e-05,10.4617,0.080937,0.369071,1.23078,10.1235,10.1361,5.36234e-06,0.045543,4.02829,13.103,1255,0.000660781,0.0385666,0.00084941,120.466
0.331247,-0.804271,665.974,0.00231778,10.8393,0.0825698,0.394833,1.27791,10.7177,10.7314,4.02295e-06,0.0454068,4.07637,13.2005,1248,-0.000734125,0.0397461,0.000920761,123.214
0.334579,-0.814785,683.372,0.000303209,11.2933,0.0835298,0.398979,1.38805,11.2151,11.2296,6.79995e-06,0.0438915,4.15024,13.4942,1242,-0.00114869,0.0396351,0.000887732,125.979
0.337905,-0.825907,702.069,-0.00353497,12.0185,0.0859618,0.408333,1.50426,11.7779,11.7928,9.74452e-06,0.0425517,4.25401,13.8817,1237,0.000319154,0.0406376,0.000977312,128.774
0.341224,-0.836417,720.15,-0.000540235,12.3962,0.0883051,0.438557,1.50522,12.3937,12.4164,4.68579e-06,0.0413588,4.31415,14.0119,1233,0.000457826,0.0411629,0.00094511,131.602
0.344498,-0.849924,743.519,-0.00169297,13.4458,0.0913896,0.452285,1.68574,13.1661,13.1823,3.70714e-05,0.0401632,4.43307,13.9033,1230,-1.62101e-05,0.0420448,0.000966937,134.426
0.347739,-0.863686,767.701,0.000550932,14.2147,0.0944712,0.464873,1.76503,13.9694,13.9935,1.77555e-05,0.0388493,4.55285,14.0787,1226,-0.000408525,0.0431235,0.00107565,137.267
0.350957,-0.876331,790.259,0.00247529,15.8039,0.0995663,0.47681,1.98378,15.0008,15.0175,4.96415e-05,0.0368112,4.66623,14.3561,1220,-0.000135523,0.0436527,0.00108779,140.134
0.354159,-0.889025,813.251,-0.00276845,16.2626,0.100811,0.491187,2.07391,15.9357,15.9561,7.20797e-05,0.0365305,4.73142,14.5179,1216,-0.000251605,0.0451806,0.00115569,143.028
0.357343,-0.901072,835.458,0.000603759,17.3164,0.104596,0.515936,2.18458,17.1039,17.111,0.000115825,0.0342996,4.89257,14.6527,1209,0.000584579,0.0462776,0.00125546,145.947
0.360493,-0.913507,858.501,-0.00167331,18.8055,0.108938,0.516967,2.39838,18.1254,18.127,0.000162369,0.0338787,5.01684,14.8762,1205,0.000399739,0.0473859,0.00125379,148.874
0.363639,-0.92829,886.517,0.000963027,20.3562,0.112312,0.54383,2.70529,19.4988,19.4464,0.000401942,0.0334794,5.14757,15.1549,1204,-0.00259169,0.047633,0.00130483,151.837
0.366757,-0.940236,909.563,-0.00268645,21.5864,0.115304,0.578808,2.92386,21.1088,21.0494,0.000426673,0.0328311,5.25872,15.4268,1198,8.32138e-05,0.0499291,0.00142114,154.822
0.369825,-0.954911,938.279,-0.000504045,23.8664,0.123067,0.620934,3.09077,22.7541,22.659,0.00062217,0.0301581,5.45055,15.6142,1192,-0.000390306,0.050893,0.00153036,157.797
0.372828,-0.966719,961.318,-0.00208767,24.6611,0.12497,0.603619,3.23196,24.3874,24.201,0.000990081,0.0296147,5.57123,15.9404,1187,-0.000166886,0.0518129,0.00158225,160.754
0.375833,-0.980979,989.874,-0.00109591,25.8529,0.127836,0.629585,3.42711,26.3607,25.9998,0.0017091,0.0293215,5.65063,16.3347,1184,0.000782281,0.0538378,0.00164843,163.749
0.378819,-0.997266,1023.17,0.00374296,29.6008,0.136757,0.683635,3.95845,29.1764,28.532,0.0029301,0.027382,5.92895,16.6725,1181,0.000953463,0.0567498,0.00182244,166.769
0.381746,-1.01055,1050.43,3.85537e-05,32.3767,0.143155,0.687705,4.34868,31.7851,30.9597,0.00330123,0.0266204,6.15478,16.9604,1178,-0.000335855,0.0586283,0.00195826,169.779
0.384652,-1.02469,1079.98,-0.00209586,35.3326,0.150175,0.707158,4.70767,34.973,33.5461,0.00544544,0.0252043,6.37935,17.1515,1175,-0.00176083,0.0586853,0.0020753,172.806
0.387537,-1.04086,1114.42,0.00120606,39.2547,0.157823,0.75564,5.32813,38.5446,36.5207,0.00752566,0.0241656,6.64017,17.383,1166,0.000852712,0.061857,0.00228647,175.855
0.390376,-1.05785,1150.93,0.00454119,43.4341,0.16632,0.765806,5.89779,43.4534,40.1464,0.0117432,0.0229846,6.89578,17.2668,1161,-0.000909268,0.0646483,0.00241298,178.901
0.393193,-1.07118,1179.99,-1.18611e-05,48.6238,0.177239,0.777669,6.47054,47.2793,42.6838,0.0155702,0.0215081,7.18429,17.6347,1158,-0.000175939,0.0685393,0.00274656,181.973
0.395998,-1.08533,1211.56,0.00271033,53.8219,0.186551,0.837503,7.20139,52.5649,46.2365,0.0205982,0.0203259,7.46733,17.5808,1157,-0.000447077,0.0707174,0.00294922,185.071
0.398756,-1.10157,1248.22,0.00635744,59.8229,0.197123,0.896151,7.98822,59.385,49.7248,0.0295542,0.0192612,7.78026,17.5317,1155,-5.2323e-05,0.0735138,0.00320638,188.156
0.401452,-1.11571,1280.57,0.000533838,66.5261,0.207654,0.949429,8.98085,65.6454,51.9263,0.0405261,0.0180782,8.11107,17.4327,1148,-0.000452759,0.0781981,0.00359421,191.219
0.40409,-1.13106,1315.91,-0.00154516,73.1464,0.219375,0.963417,9.64395,74.8851,55.5333,0.053928,0.0180416,8.48667,17.7846,1143,0.00143168,0.0818718,0.00386508,194.254
0.406698,-1.1467,1352.71,0.00262649,84.9354,0.238604,1.0309,10.8333,83.4692,58.9465,0.0672397,0.015933,9.02901,17.8185,1139,0.00335641,0.0904939,0.00477958,197.295
0.409255,-1.16673,1400.62,-0.004581,100.691,0.261132,1.11976,12.6318,98.75,61.1044,0.095106,0.0143261,9.63558,17.8877,1135,0.000280912,0.0982651,0.00595943,200.32
0.411743,-1.17896,1430.37,4.38175e-05,109.373,0.27352,1.19512,13.4904,108.358,62.1151,0.115194,0.0140151,10.02,17.8907,1135,0.00278201,0.104678,0.00654633,203.314
0.414165,-1.1982,1477.36,0.00148683,122.006,0.291483,1.24022,14.4977,122.792,62.468,0.144461,0.0132112,10.5446,18.2419,1133,-0.00130128,0.114574,0.00759036,206.259
0.41654,-1.21683,1523.88,-0.00907724,144.84,0.32091,1.33018,16.4056,144.139,62.6085,0.183987,0.011227,11.3848,18.2394,1130,0.0022687,0.12793,0.00978457,209.194
0.418857,-1.23353,1566.64,0.00316684,159.974,0.338592,1.49632,17.8342,157.855,63.2997,0.209682,0.0107799,11.9291,18.3306,1125,0.00327102,0.137183,0.0114031,212.102
0.421083,-1.2468,1600.12,-0.00747661,175.08,0.35852,1.47108,18.2994,176.097,62.449,0.241977,0.00952425,12.4576,18.2997,1124,-0.00343577,0.148582,0.0127734,214.937
0.423284,-1.26829,1656.35,-0.00172944,207.037,0.396454,1.64345,19.5089,204.69,57.202,0.29586,0.00779605,13.5037,18.576,1119,0.00303824,0.174348,0.0160203,217.767
0.425415,-1.28172,1691.36,0.00461848,222.145,0.412257,1.652,20.467,221.426,56.6006,0.324311,0.00756448,14.012,18.7006,1117,0.0035791,0.184824,0.0170315,220.558
0.427518,-1.30386,1750.98,0.000661555,254.444,0.446238,1.8521,21.6055,253.378,48.2366,0.383636,0.00673525,15.0344,19.0901,1116,-0.00309184,0.212376,0.0215502,223.338
0.42955,-1.32469,1806.96,-0.0117701,284.698,0.480041,1.85316,20.9312,285.348,45.3613,0.425477,0.00515908,15.9442,19.1648,1114,0.00577103,0.241152,0.023569,226.073
