Beta,Energy,Energy Squared,Magnetization,Magnetization Squared,Absolute Magnetization,Specific Heat,Susceptibility,Cluster Size,Non-Wrapping Cluster Size,Wrapping Probability,Dominant Frequency,Dominant Amplitude,Rho T,Unique Families,Overlap,Absolute Overlap,Overlap Variance
0,-0.0026625,2.00475,0.000740625,0.977331,0.0491656,0,0,0.964978,0.966313,0.0336781,0.19565,1.60438,1,2500,0.000396875,0.0503531,1.02784
0.00885577,-0.0158621,2.07743,0.000826802,1.03303,0.0511026,0.00015787,0.00322784,0.997153,0.998778,0.0357924,0.190296,1.62214,1.14593,2319,0.000343201,0.0485536,0.951977
0.0176893,-0.0338856,2.22235,0.00141845,1.02597,0.0504888,0.000603421,0.00660519,1.03472,1.03635,0.0359907,0.188582,1.64242,1.31761,2120,-0.00011637,0.0502309,1.01234
0.0267146,-0.0534513,2.76851,-0.000573511,1.13782,0.0533875,0.00145382,0.0109039,1.07254,1.07388,0.0372211,0.187525,1.67148,1.48778,1962,-0.000337735,0.0491754,1.0091
0.0354958,-0.0700398,3.32688,-0.000925832,1.07914,0.0517895,0.00260943,0.0139324,1.11505,1.11609,0.0370286,0.188286,1.66848,1.64957,1837,-0.000370967,0.0498903,0.992967
0.0442047,-0.0877791,4.0586,0.000579884,1.27156,0.0565992,0.00407632,0.0199574,1.15761,1.15861,0.0369849,0.185537,1.71293,1.77968,1743,0.00125854,0.0499751,1.03244
0.0528823,-0.106745,4.95366,0.00192772,1.18592,0.0545001,0.00569554,0.022503,1.20429,1.20568,0.0374973,0.178379,1.71575,1.9342,1650,0.000422383,0.0502001,1.02327
0.0616644,-0.126123,6.04847,0.00256841,1.3255,0.0569151,0.0075147,0.0305998,1.25362,1.2542,0.0367092,0.175737,1.73926,2.07811,1565,-0.00129367,0.0509895,1.03299
0.0705798,-0.14482,7.40219,0.00191029,1.30092,0.0567945,0.0101281,0.0335371,1.30718,1.30849,0.0365715,0.172954,1.75333,2.22554,1502,0.00102178,0.0500736,1.01446
0.0793695,-0.162661,8.81885,0.00225865,1.43503,0.0599982,0.0128852,0.0407551,1.3667,1.36727,0.0364873,0.169328,1.78002,2.37785,1427,0.0012509,0.0491944,0.968358
0.0881328,-0.17674,10.0351,0.00170958,1.52042,0.0615099,0.0158339,0.0486362,1.42526,1.42667,0.0368742,0.163279,1.82555,2.53814,1368,0.000891402,0.0510901,1.03543
0.096911,-0.197196,12.0421,0.00106881,1.65288,0.0639951,0.0196029,0.0585792,1.48915,1.48933,0.0370838,0.156734,1.84496,2.69399,1316,-0.00048351,0.051093,1.05521
0.105586,-0.217098,14.1502,0.000774846,1.69278,0.0645044,0.0232394,0.0662668,1.5549,1.55648,0.0367947,0.155353,1.88395,2.85458,1260,-8.96516e-05,0.0498271,1.00763
0.114267,-0.237258,16.5163,-0.00137755,1.66592,0.0645472,0.027495,0.0684841,1.63044,1.63102,0.0371107,0.154107,1.90681,2.97793,1215,-0.000618622,0.050574,1.02866
0.122904,-0.253603,18.6179,-0.000567602,1.71181,0.0652806,0.0325275,0.076305,1.70763,1.71017,0.0368174,0.149872,1.90219,3.15618,1162,-0.00135842,0.0509184,1.0449
0.131444,-0.269239,20.7378,-0.00176899,1.80866,0.0667997,0.0376735,0.0875862,1.79043,1.79148,0.0364974,0.144289,1.92641,3.33424,1125,0.00230409,0.0519994,1.08094
0.139932,-0.291541,24.0552,-0.000693604,2.0186,0.0710061,0.0449625,0.101854,1.87236,1.87261,0.0367824,0.143084,2.00582,3.51275,1097,-0.00180968,0.0527013,1.10183
0.148203,-0.310939,27.2662,0.00170977,2.03811,0.0708213,0.0552469,0.11176,1.98456,1.9848,0.036455,0.136782,2.01371,3.61656,1067,-0.00166237,0.0528292,1.12093
0.156105,-0.325839,29.5983,-0.00254508,2.20962,0.0740858,0.0589352,0.125589,2.08295,2.08402,0.0356124,0.132673,2.05107,3.75963,1034,0.00138017,0.0520665,1.09853
0.164164,-0.345602,32.9254,0.00118448,2.21833,0.0748551,0.0632925,0.128687,2.18312,2.18316,0.0371558,0.128629,2.0774,3.94771,999,-9.13558e-05,0.0553711,1.21201
0.172343,-0.367238,36.715,0.00494813,2.29568,0.0755474,0.0650406,0.143835,2.30009,2.29902,0.036525,0.128084,2.09785,4.11822,964,-0.000477926,0.0520239,1.08494
0.180812,-0.38264,39.8521,-0.0014477,2.54915,0.0796747,0.0774912,0.167078,2.42174,2.42227,0.0360131,0.121148,2.13946,4.27322,932,0.00481824,0.0545249,1.19682
0.188953,-0.405075,44.4212,-0.00134167,2.86436,0.0841529,0.086232,0.198673,2.55693,2.55779,0.0373328,0.118709,2.20708,4.42158,900,0.000847371,0.0551497,1.22322
0.197018,-0.425381,48.7065,0.00462405,2.84731,0.0847807,0.0925244,0.198444,2.70116,2.7023,0.0368424,0.112644,2.22945,4.62243,871,-0.00039415,0.0538832,1.18138
0.205135,-0.443553,53.0209,0.00187875,3.01072,0.085391,0.111747,0.234687,2.91616,2.8851,0.0351952,0.113592,2.26466,4.83035,837,0.000902189,0.0565986,1.28349
0.212826,-0.459687,56.7721,-0.00295225,3.1751,0.0884385,0.121217,0.249608,3.04206,3.04324,0.0369599,0.109942,2.30921,5.00615,809,-0.00350338,0.0560315,1.26714
0.220488,-0.482743,62.3237,0.0020667,3.42019,0.0925663,0.129568,0.27046,3.22078,3.21923,0.0360842,0.101403,2.38085,5.159,784,0.000518274,0.0576308,1.35298
0.228165,-0.498494,66.2245,-0.000723739,3.51426,0.0938146,0.135843,0.28775,3.46335,3.46494,0.033933,0.102512,2.41438,5.26363,760,-0.000420027,0.0576988,1.33737
0.235923,-0.520345,71.8956,-0.00191116,3.65693,0.0960227,0.143681,0.30588,3.66584,3.66615,0.0296404,0.100103,2.44615,5.53839,741,-0.00429042,0.0573121,1.33794
0.243724,-0.542226,78.1607,0.00123271,4.17869,0.100035,0.171929,0.394075,4.08486,3.93858,0.0361241,0.0959016,2.55078,5.72511,722,-0.00279521,0.0602171,1.45333
0.251091,-0.564041,84.6476,0.00291357,4.45756,0.103877,0.201955,0.425657,4.39119,4.22764,0.0372204,0.0897277,2.59031,5.92943,702,5.80136e-05,0.0607789,1.50795
0.258094,-0.586816,91.4591,-0.00332897,5.00195,0.111203,0.220129,0.473918,4.75269,4.59159,0.0359161,0.0851806,2.67669,6.4062,677,-0.0015362,0.0610472,1.50621
0.264988,-0.605969,97.9782,-0.000920438,5.62539,0.114458,0.279144,0.601951,5.45576,4.88223,0.0339202,0.0826663,2.7522,7.43837,666,-0.000933267,0.0618169,1.58417
0.271274,-0.626074,103.829,0.00181084,5.7112,0.119477,0.256502,0.557974,5.33829,5.32685,0.0360011,0.079703,2.81755,10.4102,643,-0.00295556,0.0632049,1.60871
0.277987,-0.64395,109.244,0.00593597,5.56775,0.117934,0.238657,0.557968,5.51035,5.50328,0.0349435,0.0777931,2.83993,13.4489,630,0.00142655,0.0645904,1.68787
0.285119,-0.662891,115.414,-0.00101498,6.28391,0.125253,0.23752,0.646565,5.91502,5.89925,0.0361005,0.0722336,2.91493,15.153,614,0.00216445,0.0667713,1.79532
0.292451,-0.679861,121.359,-0.00460012,6.71302,0.130474,0.259365,0.688728,6.34347,6.32456,0.0353432,0.0691303,3.01889,15.3738,598,-0.00018953,0.0665894,1.77229
0.299648,-0.705405,130.869,-0.00254405,7.48194,0.1364,0.312814,0.814766,7.06153,6.82511,0.0365954,0.0680132,3.10433,15.3564,580,-0.00253439,0.0698713,1.91671
0.306363,-0.731685,140.634,-0.00855533,8.20375,0.143974,0.336124,0.887608,7.8042,7.6178,0.0360866,0.0623719,3.23825,15.2177,572,0.00212923,0.0740042,2.17858
0.312986,-0.751397,147.818,-0.00142219,8.40267,0.14662,0.321463,0.90745,8.33979,8.22227,0.0349746,0.060051,3.27483,15.9542,560,-0.00051977,0.0728603,2.17123
0.319904,-0.771989,156.063,0.00131485,9.78713,0.158344,0.357713,1.07761,9.12548,8.95016,0.0356512,0.0564747,3.42632,16.5359,545,0.00115209,0.0763921,2.36405
0.326608,-0.792606,164.234,0.00273791,10.5652,0.162127,0.363591,1.25294,10.1346,9.76824,0.0376704,0.055644,3.53572,15.8186,529,-0.00271544,0.0768475,2.40633
0.333397,-0.818672,175.141,0.000355696,11.6577,0.173538,0.396145,1.31629,11.1205,10.579,0.0387013,0.0534762,3.67724,15.2973,520,-0.00644419,0.0799932,2.60398
0.340036,-0.8426,185.494,-0.00139897,12.962,0.18322,0.432458,1.48533,12.5523,11.6796,0.0409478,0.0466323,3.83421,14.9459,506,0.00198027,0.084628,2.88504
0.346516,-0.868636,197.928,0.00399242,15.2051,0.195705,0.572608,1.87125,14.6199,12.5858,0.0471211,0.0471558,3.99672,15.4146,497,0.00202334,0.0871566,3.12539
0.352255,-0.892562,208.395,0.00576348,16.2739,0.20323,0.551896,2.00802,16.2568,13.5431,0.0545326,0.0440876,4.16525,15.5998,481,-0.000703253,0.0891533,3.22264
0.358198,-0.918026,220.297,0.000330331,18.292,0.217214,0.583395,2.22564,18.2617,14.5831,0.0619509,0.0413075,4.33129,16.294,469,0.000676698,0.0963638,3.76653
0.364076,-0.942826,232.355,-0.0103024,20.9492,0.232805,0.635147,2.57563,20.5182,15.7109,0.0719382,0.0396825,4.566,16.4825,454,0.00182096,0.101275,4.23718
0.369801,-0.968332,245.558,-0.00299098,24.4519,0.251468,0.754202,3.05586,23.9364,16.1199,0.0929804,0.0351726,4.83658,16.3337,447,-0.000428217,0.107711,4.85963
0.375138,-0.995585,259.532,-0.0059913,28.3896,0.273354,0.814508,3.47405,27.2231,17.1608,0.111888,0.0329489,5.16219,16.5228,442,0.0035877,0.116283,5.5628
0.380348,-1.01946,272.07,-0.00151677,31.5496,0.292827,0.869125,3.65066,30.3463,17.8022,0.128895,0.0290087,5.42303,17.1252,435,0.00105949,0.122775,6.03996
0.385461,-1.04797,287.015,0.00608566,36.6781,0.320659,0.871195,3.99166,34.8115,17.765,0.162786,0.0262942,5.77989,17.9581,427,0.00244261,0.134472,7.39674
0.390637,-1.07821,304.108,-0.00525202,40.868,0.337341,0.99135,4.58433,39.9135,17.7883,0.198962,0.0250102,6.06125,18.9565,422,0.00149281,0.152194,9.4316
0.395554,-1.11227,323.849,-0.0218769,47.8516,0.370119,1.117,5.05624,46.5333,17.3328,0.245181,0.0224465,6.53555,19.6338,413,0.00506461,0.162235,10.614
0.400245,-1.14244,341.029,-0.00440812,53.4112,0.394592,1.10625,5.42383,52.9464,16.9676,0.287077,0.0206373,6.86569,19.9326,409,-0.000850297,0.183747,13.3732
0.405014,-1.17248,359.362,0.0106168,61.2719,0.43078,1.22027,5.57529,60.1587,15.8249,0.339518,0.0162766,7.37625,20.8335,398,0.00383598,0.213873,17.7085
0.409609,-1.20312,378.159,0.00750253,69.2695,0.461988,1.2745,5.99289,68.3011,14.7066,0.388429,0.0150304,7.83912,21.5345,390,-0.00652201,0.236829,21.5631
0.414157,-1.2396,401.047,-0.0126735,77.5161,0.495869,1.31683,6.03396,77.3721,13.2957,0.444289,0.01248,8.30984,22.3173,381,0.0075317,0.262892,25.5813
0.41868,-1.26793,419.756,-0.0268757,86.33,0.531069,1.43674,5.9156,85.8054,11.7128,0.491414,0.0105082,8.80085,22.3484,371,-0.0167388,0.296136,31.2784
0.423058,-1.30232,442.429,0.0121355,95.4967,0.564665,1.47488,5.8687,95.0816,10.3157,0.536943,0.00878284,9.30527,22.8481,365,-0.0016359,0.331702,37.5879
0.427424,-1.34173,469.091,-0.00540673,107.091,0.606487,1.50404,5.52551,105.502,8.92062,0.586367,0.0067913,9.91253,23.5384,358,0.00298216,0.372118,45.5719
0.431792,-1.3797,495.435,0.0143124,118.689,0.646903,1.51394,4.99012,117.784,7.10918,0.640877,0.00470648,10.5213,24.1809,352,-0.0081541,0.431712,57.6084
0.43619,-1.41771,522.609,-0.0129542,129.205,0.681991,1.53572,4.42144,128.399,5.69922,0.680099,0.00325145,11.0217,24.068,343,0.0188668,0.467927,66.0202
0.440602,-1.45189,547.121,-0.0230762,139.498,0.713041,1.45209,4.11562,138.077,4.71596,0.713481,0.00330306,11.5131,24.7354,340,0.0113284,0.515722,77.645
0.445184,-1.48715,573.532,0.00860804,149.565,0.744379,1.45765,3.43491,147.686,3.72754,0.743682,0.00168849,11.9822,25.018,329,0.0294089,0.554197,87.4128
0.449805,-1.52172,599.633,0.0233854,159.668,0.773997,1.38233,2.83626,158.53,2.84,0.777042,0.00174479,12.4439,24.3924,321,-0.00407227,0.602484,100.66
0.4546,-1.55257,623.385,-0.0238994,167.91,0.797532,1.30316,2.30908,166.657,2.21359,0.799917,0.00114488,12.7992,25.3449,314,-0.0203509,0.638449,110.991
0.459591,-1.58213,646.623,-0.0221888,174.896,0.816645,1.23013,1.91521,173.499,1.98883,0.814874,0.000575314,13.0952,26.1454,305,-0.00185016,0.668979,120.298
0.464785,-1.60807,667.293,-0.0312763,181.842,0.835319,1.14665,1.49451,180.372,1.52275,0.832471,0.000236742,13.3816,26.1214,298,-0.0154869,0.69764,129.342
0.470225,-1.63547,689.352,-0.00794325,188.371,0.851772,1.02055,1.24098,187.431,1.10255,0.852824,0.000209205,13.6412,26.0412,292,0.00285042,0.723843,138.218
0.476059,-1.66001,709.915,0.00888931,194.177,0.865613,1.01283,1.12343,193.218,0.9768,0.866204,0.000181084,13.861,26.2821,287,-0.0202136,0.744752,146.061
0.481987,-1.68513,730.839,-0.0103667,200.235,0.880565,0.901601,0.835744,199.73,0.723957,0.883236,7.81902e-05,14.0969,27.2146,283,-0.000514752,0.77908,158.043
0.488349,-1.70664,749.223,-0.0173065,204.83,0.891292,0.85709,0.714415,204.265,0.617256,0.893485,0.00010408,14.2676,27.4846,281,-0.0145387,0.796784,164.779
0.49496,-1.72978,769.224,-0.00312109,210.013,0.903246,0.792524,0.571554,209.101,0.460863,0.904691,7.81902e-05,14.4573,28.0206,275,-0.0097249,0.815025,172.104
0.501929,-1.75289,789.473,-0.00752375,214.756,0.91415,0.726481,0.41376,213.876,0.398339,0.91441,2.59551e-05,14.6286,29.2155,271,-0.00290373,0.835649,180.194
0.509309,-1.77099,805.522,0.0145469,218.349,0.922153,0.675685,0.333549,217.282,0.298014,0.921192,2.55938e-05,14.7567,28.8671,269,-0.0138558,0.848373,185.5
0.517075,-1.79046,823.097,-0.000720075,222.112,0.930433,0.647475,0.254048,221.625,0.240905,0.932524,0,14.8869,30.1465,264,-0.0141689,0.866139,192.889
0.525128,-1.80939,840.276,-0.000226403,225.506,0.937714,0.594348,0.21173,224.432,0.205102,0.937224,0,15.0034,29.277,260,0.0044324,0.879247,198.636
0.533665,-1.82901,858.24,0.00633681,229.092,0.945354,0.525985,0.163219,228.075,0.153765,0.944918,0,15.1257,30.1267,257,-0.0175412,0.893004,204.739
0.542888,-1.8453,873.358,0.0367365,232.036,0.951529,0.485006,0.136756,231.306,0.124391,0.95195,0,15.2245,30.044,255,-0.00828531,0.906171,210.665
0.552658,-1.86026,887.36,0.00893359,234.67,0.957012,0.443514,0.114029,233.749,0.10325,0.95646,0,15.3122,30.6707,252,-0.00262227,0.916148,215.263
0.563059,-1.87441,900.731,0.0228319,237.01,0.961835,0.411344,0.0999838,236.089,0.0839489,0.962175,0,15.3894,31.056,249,0.0162116,0.923838,218.85
0.574062,-1.88712,912.824,-0.0170426,239.18,0.966305,0.378724,0.0811295,238.428,0.0692339,0.967036,0,15.4609,33.0117,243,0.0170867,0.93348,223.344
0.585753,-1.89882,923.987,-0.0197673,241.114,0.970261,0.333939,0.0668293,240.105,0.0589444,0.969621,0,15.5242,33.0234,240,0.0118919,0.941995,227.373
0.598457,-1.9086,933.445,0.0172968,242.657,0.973386,0.324061,0.0611379,241.638,0.0522249,0.972957,0,15.5742,31.9116,239,-0.0241992,0.948097,230.316
0.611633,-1.9193,943.827,-0.0046624,244.301,0.976707,0.299587,0.05386,243.528,0.0404819,0.977329,0,15.6273,32.7341,239,-9.0989e-05,0.954289,233.302
0.625638,-1.92876,953.048,0.00446339,245.779,0.979691,0.272492,0.0449154,244.615,0.0351128,0.978807,0,15.6751,33.2799,236,-0.0185209,0.959943,236.045
0.640659,-1.93941,963.477,-0.00796599,247.417,0.982981,0.238442,0.0360981,246.388,0.0280874,0.982698,0,15.7277,33.2,229,-0.0144691,0.966448,239.221
0.657103,-1.94864,972.566,0.00643825,248.773,0.985693,0.209277,0.0299983,247.958,0.0213052,0.986265,0,15.7711,33.085,226,-0.00262613,0.971897,241.9
0.675105,-1.95647,980.318,0.0216154,249.944,0.988029,0.184735,0.0246953,248.734,0.0175627,0.987712,0,15.8085,34.3655,224,0.00912932,0.976604,244.23
0.694791,-1.96345,987.246,0.02532,250.961,0.990054,0.161181,0.0196556,249.867,0.014739,0.99,0,15.8409,35.2067,223,-0.000859689,0.980227,246.031
0.716481,-1.96987,993.661,0.016862,251.856,0.991826,0.14433,0.0170301,250.975,0.0107575,0.992385,0,15.8692,35.7993,222,-0.0387068,0.983541,247.69
0.740118,-1.97592,999.71,0.0174134,252.725,0.993549,0.118964,0.0130243,251.456,0.00895582,0.993273,0,15.8968,36.4889,221,-0.0191579,0.987161,249.503
0.767011,-1.98079,1004.6,0.00946563,253.423,0.994928,0.100213,0.00992009,252.166,0.00592,0.995,0,15.9189,37.9144,218,0.00379063,0.989972,250.918
0.797378,-1.9851,1008.93,0.000726241,254.012,0.996091,0.0816221,0.00761933,252.98,0.0044106,0.996341,0,15.9375,39.0148,215,0.00376409,0.992231,252.055
0.832358,-1.98909,1012.95,-0.0245026,254.555,0.997162,0.0594891,0.00517076,253.349,0.00323089,0.997242,0,15.9546,39.6526,213,-3.69385e-05,0.994311,253.108
0.87513,-1.99232,1016.21,-0.0189227,254.99,0.998018,0.047966,0.00381567,253.566,0.002262,0.998053,0,15.9683,40.8248,202,-0.004524,0.996029,253.98
0.92521,-1.99487,1018.79,-0.00553105,255.326,0.998678,0.036061,0.00274494,254.085,0.00136826,0.998788,0,15.9788,40.7558,197,-0.0295244,0.997401,254.676
0.986273,-1.99677,1020.72,-0.00708484,255.573,0.999163,0.0256621,0.00185892,253.974,0.00103274,0.999065,0,15.9866,41.1103,193,0.0187457,0.998262,255.114
1.06344,-1.99838,1022.35,-0.0195709,255.787,0.999582,0.0153058,0.000997415,254.519,0.00046875,0.99957,0,15.9933,41.5939,191,0.0171234,0.9991,255.541
1.17117,-1.99943,1023.42,-0.0257794,255.925,0.999854,0.00637604,0.000364995,254.863,0,1,0,15.9977,42.0912,188,0.0116883,0.999698,255.846
1.35499,-1.99985,1023.85,-0.0261261,255.981,0.999963,0.00216846,0.000100022,254.472,0,1,0,15.9994,42.3766,184,-0.0102385,0.99991,255.954
1.71968,-2,1024,-0.0286169,256,1,0,0,255.084,0,1,0,16,42.4849,182,-0.0151033,1,256
