Beta,Energy,Energy Squared,Magnetization,Magnetization Squared,Absolute Magnetization,Specific Heat,Susceptibility,Cluster Size,Non-Wrapping Cluster Size,Wrapping Probability,Dominant Frequency,Dominant Amplitude,Rho T,Unique Families,Overlap,Absolute Overlap,Overlap Variance,Free Energy
0,0.000576953,6.06408,-0.000189062,1.02223,0.0252125,0,0,0.972383,0.976526,0.0234582,0.216169,1.81343,1,10000,0.000404102,0.0247658,1015.55,0
0.0030538,-0.0183636,6.28177,0.00011997,1.02075,0.0251175,5.53616e-05,0.00114431,0.998073,1.00182,0.0226518,0.214845,1.82819,1.19055,9046,0.000674879,0.0250991,1036.5,0.0288182
0.00614017,-0.0360244,7.12907,0.000310135,0.983296,0.0248059,0.000218676,0.00216868,1.02255,1.02729,0.0229411,0.216585,1.82751,1.38911,8231,-7.20834e-05,0.0250106,1038.83,0.0288796
0.00926259,-0.055005,8.94418,5.93404e-05,1.00906,0.0251116,0.000501562,0.00336539,1.05076,1.05443,0.0225991,0.213962,1.84008,1.5795,7588,-0.000156407,0.0248986,1028.99,0.0287629
0.0123727,-0.0737506,11.3061,9.52409e-05,0.99325,0.0247919,0.000878149,0.00450196,1.07823,1.08212,0.023248,0.215847,1.84133,1.76339,7046,-9.60264e-05,0.025167,1045.55,0.0289105
0.0155125,-0.0911337,14.4777,-2.62178e-05,1.02852,0.0252375,0.00143733,0.00583736,1.10785,1.11179,0.0229594,0.212385,1.85802,1.94299,6571,-0.000205602,0.0247005,1009.17,0.0288614
0.0185894,-0.107832,17.7715,-0.000388028,1.00194,0.0249817,0.00202664,0.00674557,1.1385,1.14247,0.0222612,0.215769,1.85675,2.12534,6167,0.000154463,0.0247128,1003.57,0.028966
0.0216946,-0.127367,22.5092,-0.000109317,0.989956,0.0248464,0.00277569,0.00776223,1.17073,1.17531,0.0218993,0.214748,1.86179,2.29866,5848,-0.000187316,0.0248322,1005.89,0.0289714
0.0247911,-0.145682,27.4242,-0.000234265,0.982006,0.0246399,0.00349808,0.00893253,1.20374,1.20801,0.0223755,0.212725,1.87671,2.50922,5502,-6.3283e-05,0.0249987,1034.5,0.0288208
0.0279432,-0.163433,33.1154,-1.91522e-05,0.9893,0.024804,0.00450071,0.0100398,1.23908,1.24352,0.0223545,0.212302,1.88211,2.71758,5211,-1.46109e-05,0.024931,1016.19,0.0289513
0.0310753,-0.182437,39.8306,0.000522968,1.00529,0.0249503,0.00555121,0.0114306,1.27412,1.27915,0.0229399,0.21055,1.89387,2.92031,4926,-0.000589377,0.0253128,1059.53,0.0288889
0.0342117,-0.200687,46.9004,0.000205769,0.967237,0.0244478,0.00662301,0.0121519,1.31621,1.32129,0.0207131,0.214896,1.89272,3.12131,4681,8.28598e-06,0.0254506,1070,0.0288758
0.037373,-0.217892,54.3254,-0.00045668,1.0033,0.0249914,0.00797389,0.0135939,1.35542,1.36,0.0218699,0.214169,1.90674,3.33113,4457,-0.000248054,0.0254239,1065.65,0.0289014
0.0405203,-0.234188,61.8309,-0.000905514,0.992187,0.0247124,0.00931058,0.014864,1.39642,1.40134,0.022087,0.212286,1.9123,3.52657,4251,-0.000457733,0.0251522,1042.47,0.0288792
0.0436781,-0.253559,71.3962,-0.000177955,1.01004,0.0250172,0.0106087,0.0161244,1.44218,1.44731,0.0220064,0.211367,1.92144,3.74322,4075,-0.000376612,0.0253325,1060.69,0.0289259
0.0468671,-0.271316,80.9309,0.000451165,0.985417,0.0245589,0.0121943,0.0172377,1.48839,1.49399,0.0216327,0.212703,1.93793,3.96472,3903,-2.46778e-05,0.0253691,1050.54,0.0288986
0.0500586,-0.288141,90.4455,-0.000165421,0.94934,0.0243069,0.0136004,0.0172369,1.53615,1.54188,0.022293,0.210717,1.93734,4.11753,3748,0.000233465,0.0251085,1040.56,0.0289126
0.0532864,-0.306407,101.702,0.000550887,0.980913,0.024762,0.0157971,0.0188124,1.58844,1.59433,0.0227113,0.211161,1.94936,4.31693,3620,0.00085534,0.0252084,1047.06,0.0288409
0.0564746,-0.324567,113.402,1.99217e-06,0.967719,0.0245101,0.017637,0.0199105,1.64438,1.65046,0.0224869,0.213172,1.96645,4.5188,3503,0.000271135,0.0253223,1063.53,0.0289089
0.0596724,-0.342631,125.924,-7.32872e-05,0.949843,0.0243181,0.0203357,0.0205439,1.70237,1.70877,0.0217985,0.212685,1.97438,4.71765,3391,1.64195e-05,0.0255232,1065.53,0.0290178
0.0628191,-0.36176,139.547,0.000443563,0.940374,0.024113,0.0218454,0.0216715,1.76115,1.76787,0.0220193,0.210454,1.97944,4.88037,3273,1.60784e-06,0.0253098,1054.85,0.0289152
0.0660152,-0.376617,150.747,9.81996e-05,0.928649,0.0241346,0.0239828,0.0219298,1.82362,1.83074,0.0221066,0.213206,1.99341,5.12194,3155,-0.000106047,0.0258472,1093.27,0.0289783
0.0692208,-0.396742,166.663,0.000244991,0.933295,0.0241493,0.026262,0.0232659,1.89327,1.90044,0.0218366,0.214574,2.01398,5.35655,3049,0.000305188,0.0253706,1062.03,0.0289551
0.0724329,-0.412861,180.192,0.000103835,0.926166,0.0240587,0.0296292,0.0241529,1.96642,1.97372,0.0210476,0.213055,2.0158,5.47418,2961,0.000210459,0.0252372,1053.55,0.0288763
0.0755972,-0.429732,194.533,-5.26636e-05,0.95085,0.0243948,0.0310373,0.0258136,2.0364,2.04543,0.0226803,0.210848,2.02881,5.71635,2864,-0.000274845,0.0256714,1078.62,0.0290359
0.078824,-0.447634,210.639,-0.000622101,0.922459,0.0240238,0.0338825,0.0261275,2.11251,2.12257,0.0242894,0.212706,2.04593,5.88813,2768,0.000541052,0.0255003,1070.31,0.0289327
0.0820442,-0.467095,228.831,-0.00027201,0.92785,0.0239133,0.0364648,0.028082,2.1976,2.20823,0.0240235,0.211941,2.05645,6.08929,2678,-5.42424e-05,0.0263458,1149.93,0.0289992
0.0852751,-0.483607,244.926,-0.000328836,0.91283,0.0238189,0.0395416,0.0283008,2.2878,2.29897,0.0243006,0.214501,2.06845,6.26435,2612,-0.000395877,0.025841,1100.74,0.0290076
0.0885,-0.501653,263.276,-4.40913e-05,0.930869,0.0240802,0.0437062,0.029833,2.38437,2.39571,0.0239203,0.212029,2.0769,6.46361,2545,-0.000179543,0.0258732,1096.57,0.028964
0.0916833,-0.518674,280.933,-0.000509095,0.892086,0.0235642,0.0458473,0.0296586,2.48018,2.49198,0.0235224,0.214094,2.09983,6.71938,2478,-0.00110822,0.0265554,1154.6,0.0289731
0.0949032,-0.535178,298.694,-0.00021884,0.928751,0.0240303,0.0486766,0.0320239,2.58609,2.59896,0.0233584,0.214046,2.11053,7.01651,2395,0.000856521,0.0260059,1108.44,0.0289307
0.0981379,-0.5546,320.448,-0.000165952,0.900323,0.0236517,0.0528198,0.0321395,2.70394,2.717,0.0235345,0.215565,2.12469,7.2874,2335,0.000147003,0.0263383,1145.28,0.0289705
0.101349,-0.571794,340.435,4.81333e-05,0.883291,0.0234611,0.0579219,0.0323971,2.82281,2.83694,0.0233484,0.215041,2.14252,7.53696,2276,-0.000368955,0.0266296,1167.2,0.0290466
0.104516,-0.588762,360.518,-0.00039002,0.873778,0.0233692,0.0607067,0.0328757,2.95825,2.97079,0.0224155,0.216518,2.15964,7.76411,2226,0.000248323,0.0264133,1152.39,0.0289422
0.107706,-0.607281,383.261,-0.000201516,0.885668,0.0235129,0.0651943,0.0344163,3.09499,3.10715,0.0213186,0.215727,2.17024,7.94162,2178,4.76274e-05,0.0263256,1141.04,0.028899
0.110878,-0.624181,404.351,-0.000267244,0.848639,0.0229974,0.0663814,0.0340465,3.2449,3.25861,0.0219098,0.218865,2.19058,8.17742,2126,0.000116419,0.0269173,1180.72,0.0289668
0.114114,-0.644592,431.244,-0.000166054,0.860763,0.0232547,0.0751662,0.0350333,3.43315,3.41509,0.0217347,0.217016,2.20758,8.38128,2075,-7.00538e-05,0.0266646,1176.11,0.0289825
0.117244,-0.661974,454.394,-0.000310515,0.848984,0.0229833,0.0779052,0.0361196,3.57295,3.58668,0.0213249,0.21763,2.22619,8.56232,2028,0.000535999,0.0269642,1192.5,0.0300293
0.120403,-0.678675,477.233,-0.000111064,0.863215,0.0231571,0.080862,0.0378175,3.74175,3.75691,0.0218356,0.217319,2.2456,8.78145,1987,-0.000609551,0.0273165,1232.81,0.0289757
0.123587,-0.696004,501.536,-0.000332579,0.836901,0.0227937,0.0838131,0.0376788,3.93585,3.95147,0.0215186,0.218584,2.2621,9.02716,1949,-0.000439443,0.0270853,1212.23,0.028947
0.126797,-0.713958,527.623,-0.000208392,0.816822,0.0224947,0.0908931,0.0378697,4.13137,4.14639,0.0213918,0.218811,2.27841,9.232,1915,0.000246191,0.0273316,1227.69,0.029018
0.129959,-0.732593,555.066,-7.45345e-05,0.81897,0.0226268,0.0927677,0.0383002,4.36383,4.37884,0.0214254,0.221251,2.30412,9.39662,1872,-0.000629737,0.0275459,1246.31,0.0289496
0.133168,-0.751184,583.483,0.000264169,0.813621,0.0225561,0.100424,0.0389695,4.60286,4.61898,0.0215096,0.219622,2.32898,9.65453,1832,5.68794e-05,0.0277067,1263.62,0.0289656
0.136328,-0.767116,608.474,0.000104111,0.80007,0.0221632,0.109353,0.0404995,4.96785,4.85046,0.0217948,0.220598,2.34562,9.87532,1794,0.000371082,0.0279634,1293.11,0.0288782
0.139428,-0.785337,637.415,-1.58188e-05,0.785365,0.0221418,0.11388,0.0395058,5.11154,5.12846,0.0218634,0.222643,2.37508,10.264,1764,0.000304162,0.027903,1302.53,0.0305819
0.142535,-0.802966,665.93,0.00021426,0.798492,0.0222663,0.115824,0.0414502,5.40702,5.4234,0.0214442,0.221353,2.40038,10.5684,1736,-0.000234847,0.0277109,1267.63,0.0290253
0.145685,-0.821487,696.778,-0.000286509,0.770898,0.0218901,0.121839,0.0408238,5.71905,5.73363,0.021116,0.222766,2.42622,10.7247,1705,5.50288e-05,0.0285093,1348.45,0.0289775
0.148823,-0.839395,727.312,0.000439383,0.781778,0.0219927,0.128858,0.0426367,6.07843,6.09329,0.0210755,0.222816,2.44795,10.8865,1684,0.000388593,0.0285641,1350.82,0.0290684
0.151941,-0.85718,758.069,0.000156027,0.755801,0.0216651,0.13105,0.0418081,6.42493,6.43723,0.02124,0.222253,2.46553,11.1283,1660,0.000202397,0.0287987,1361.11,0.0289347
0.155097,-0.877489,794.302,-0.000228502,0.774657,0.021875,0.140363,0.0441492,6.84622,6.85405,0.0211266,0.222161,2.50264,11.3753,1626,0.000153596,0.0289257,1368.79,0.0289899
0.15821,-0.893021,822.487,0.000127239,0.74334,0.0215742,0.146709,0.042198,7.28275,7.28583,0.0207302,0.22417,2.5337,11.5608,1602,-0.000770196,0.0296595,1451.17,0.0290017
0.161316,-0.910397,854.65,0.000103502,0.741349,0.0214682,0.154453,0.0434595,7.76249,7.75179,0.0204013,0.224429,2.55789,11.8038,1569,-9.129e-05,0.0293746,1419.43,0.0290868
0.164403,-0.928812,889.357,0.00023872,0.731808,0.0214227,0.161103,0.0430505,8.23705,8.2215,0.0206714,0.225152,2.5829,12.0899,1540,0.000795666,0.0297593,1445.93,0.0289792
0.167483,-0.948129,926.45,0.000266975,0.728407,0.0211695,0.166253,0.0451372,8.78865,8.75633,0.0204862,0.225133,2.61166,12.3584,1512,0.000389297,0.030373,1525.34,0.0290696
0.170572,-0.968518,966.56,-3.58556e-05,0.710937,0.0210465,0.17517,0.0438971,9.42432,9.35744,0.0201158,0.225251,2.65447,12.6319,1489,4.75389e-05,0.0302259,1493.29,0.0291044
0.173637,-0.983677,996.836,-0.000345438,0.700986,0.0208476,0.180679,0.0444391,10.1011,9.99843,0.0211251,0.227242,2.67456,13.0489,1452,0.000284479,0.0305165,1541.26,0.0289296
0.176708,-1.00267,1035.47,-0.000469632,0.694425,0.0207436,0.186957,0.0448485,10.7425,10.5945,0.0217035,0.226043,2.71566,13.3517,1431,0.000234215,0.0310651,1591.34,0.0289958
0.179782,-1.02134,1074.3,0.000203644,0.689591,0.0207703,0.198084,0.0445555,11.5211,11.3135,0.0220068,0.226535,2.75098,13.5914,1402,6.79489e-05,0.0314805,1635.28,0.0290711
0.182819,-1.03987,1113.44,0.000262797,0.675083,0.0204302,0.205363,0.0452796,12.4891,12.1772,0.021857,0.227543,2.79816,13.7177,1380,-0.000287201,0.031344,1609.65,0.0289091
0.185853,-1.05828,1153.15,0.0001703,0.669971,0.0203124,0.218414,0.0459941,13.3832,12.9935,0.0225222,0.227555,2.83611,14.0394,1357,0.000561569,0.03181,1671.76,0.0289463
0.188843,-1.07697,1193.91,0.000190696,0.657299,0.0202326,0.221766,0.0449667,14.4773,13.9011,0.0235902,0.22781,2.87029,14.1677,1326,-0.000113414,0.0317163,1667.03,0.0290876
0.191859,-1.09677,1238.19,-0.000233173,0.660373,0.0202736,0.236386,0.0459479,15.7802,14.8385,0.0251557,0.228442,2.918,14.3539,1304,3.86619e-05,0.0323419,1727.66,0.029078
0.194826,-1.11769,1286.04,0.000311643,0.651055,0.0200679,0.259085,0.0464993,17.1391,15.9574,0.0279471,0.228463,2.95475,15.0271,1286,-0.000572047,0.0329517,1796.57,0.0322312
0.197705,-1.13578,1327.41,4.83525e-05,0.6562,0.020081,0.252327,0.048097,18.4181,16.9739,0.0306953,0.228779,3.00413,15.9482,1270,-0.000267921,0.0331433,1815.88,0.0297512
0.200664,-1.1539,1369.88,4.50721e-05,0.641462,0.0199535,0.259014,0.0469083,19.7918,18.0428,0.0321241,0.229238,3.05464,16.7272,1248,-7.78878e-05,0.0340346,1888.68,0.0291445
0.203629,-1.17341,1416.58,5.90306e-07,0.612362,0.0194063,0.275637,0.0461667,21.5268,19.2103,0.0360049,0.22964,3.08529,17.3052,1230,-0.000217429,0.0341828,1914.62,0.0290657
0.206546,-1.19199,1461.43,-7.9978e-05,0.618338,0.0196037,0.277116,0.0464335,23.3834,20.3629,0.0393929,0.229713,3.14327,17.5167,1209,-7.64146e-05,0.0347651,1988.1,0.0290191
0.209497,-1.21132,1509.11,-6.25268e-05,0.609602,0.019438,0.289672,0.0466548,25.3471,21.5018,0.0460568,0.230607,3.20174,17.73,1190,6.23296e-05,0.0351914,2032.17,0.0290516
0.212424,-1.23017,1556.41,-3.71723e-05,0.600656,0.0193553,0.30484,0.0461041,27.5961,22.6851,0.0538541,0.231205,3.24368,17.7294,1176,-0.000117646,0.035283,2043.12,0.0290365
0.215317,-1.25035,1607.62,0.000172008,0.577848,0.0189387,0.312225,0.0453381,30.1467,23.9327,0.0620269,0.23045,3.29062,17.9117,1157,-0.000262174,0.0362349,2180.01,0.0290514
0.218215,-1.26953,1657.08,-0.000177233,0.584027,0.0190719,0.319014,0.046165,32.8748,25.1922,0.0703976,0.230375,3.36866,18.3345,1141,0.000866979,0.0368275,2244.63,0.0291329
0.22112,-1.28832,1706.34,-7.95542e-05,0.577869,0.0189345,0.329556,0.0466009,35.8573,26.5037,0.0802734,0.231352,3.42332,18.7909,1130,-0.000433304,0.0370527,2249.49,0.0290648
0.224016,-1.30907,1761.57,-0.000300602,0.561995,0.018676,0.340251,0.0458856,39.324,27.4227,0.0936098,0.231247,3.49308,18.5384,1118,0.000404748,0.037608,2328.79,0.0291473
0.226904,-1.32923,1816.39,-4.83251e-05,0.552285,0.0184584,0.366914,0.0461511,43.2113,28.6071,0.107929,0.231857,3.54468,18.9912,1104,-0.000268254,0.0384368,2435.45,0.0290102
0.229721,-1.34934,1871.55,-0.000371023,0.536486,0.0182194,0.376202,0.0451568,47.2643,29.6845,0.123631,0.232093,3.60715,19.2909,1092,-0.000332526,0.0396013,2576.46,0.0289384
0.232538,-1.3703,1929.76,-0.000166567,0.528375,0.0182227,0.377565,0.0437954,51.5728,30.3693,0.142249,0.232104,3.69765,19.4248,1071,-0.000393381,0.039524,2579.85,0.0291076
0.235384,-1.38956,1984.26,6.74241e-05,0.536277,0.0182008,0.389711,0.0463845,56.6017,31.1985,0.15852,0.23279,3.76703,19.7907,1058,-0.000826885,0.0409626,2779.98,0.0290861
0.238219,-1.4092,2040.63,-9.3316e-05,0.515311,0.0179607,0.404504,0.0440665,61.5108,31.5952,0.179368,0.232932,3.85113,20.0569,1046,0.000384904,0.0411768,2777.55,0.0290973
0.241036,-1.43026,2102.1,0.000204081,0.500804,0.0177193,0.426591,0.0432165,67.8833,31.911,0.204088,0.232582,3.91351,20.0731,1033,-0.000591796,0.0425425,2971.89,0.029081
0.243811,-1.45131,2164.43,0.000206017,0.498562,0.0176169,0.451388,0.0440708,74.3113,32.239,0.227436,0.232754,4.01266,20.2543,1020,0.000209165,0.0430307,3046.17,0.0289937
0.24654,-1.47131,2224.31,-0.000274627,0.496561,0.0175041,0.461775,0.0450713,80.8587,32.1478,0.252192,0.233102,4.08065,20.2604,1008,-0.000288615,0.0443342,3224.41,0.0289964
0.249268,-1.49144,2285.49,-4.02869e-05,0.472215,0.0170508,0.479889,0.0434989,88.8055,31.6833,0.282968,0.233569,4.15746,20.7365,996,0.000506154,0.0456563,3439.88,0.0289813
0.251974,-1.51291,2351.55,0.000173373,0.466141,0.017014,0.490836,0.0427646,96.2289,31.5102,0.308372,0.233474,4.2607,21.2928,985,0.000387411,0.0460932,3471.87,0.0289869
0.254678,-1.5346,2419.29,0.000161866,0.4736,0.0172027,0.504356,0.0434391,104.699,30.9379,0.335384,0.233268,4.38916,22.0266,972,0.000560365,0.04733,3686.18,0.0290408
0.257375,-1.55552,2485.75,-0.000445843,0.455053,0.016868,0.53201,0.042131,114.369,30.4888,0.363025,0.233616,4.47576,21.9776,964,-0.000509451,0.0483325,3844.97,0.0291231
0.260028,-1.57706,2554.93,-0.000318504,0.444704,0.0165404,0.549764,0.0427886,123.781,29.9777,0.390456,0.234158,4.59171,22.0997,955,0.00014735,0.0500716,4111.83,0.0294942
0.262666,-1.59755,2621.56,-6.43844e-05,0.433665,0.0164655,0.562185,0.0409876,134.43,29.0539,0.420118,0.234708,4.68327,22.378,949,0.000188442,0.0514361,4387.48,0.0291035
0.2653,-1.62031,2696.71,-9.79704e-05,0.435372,0.0164522,0.582531,0.0419712,144.981,27.6264,0.447381,0.234724,4.76174,22.4731,939,-0.000265246,0.0520022,4463.98,0.028978
0.267914,-1.6427,2771.4,0.000325717,0.420876,0.016091,0.587461,0.0417249,156.836,26.5028,0.478938,0.234836,4.90491,22.4613,929,0.00076275,0.0541529,4788.64,0.0290432
0.270542,-1.66309,2840.86,-6.0803e-05,0.408081,0.015877,0.629299,0.0405683,168.845,25.0382,0.508303,0.235263,5.03637,22.8449,917,0.000592194,0.0555116,5055.88,0.0290579
0.273107,-1.68506,2916.11,-0.00023364,0.400773,0.0158067,0.637722,0.0395802,180.334,24.1946,0.533507,0.235594,5.19059,23.2685,908,2.98888e-05,0.0574257,5387.12,0.0291313
0.275679,-1.7081,2996.1,4.49309e-05,0.393119,0.0156438,0.642945,0.0392894,192.883,22.9048,0.557378,0.2358,5.37318,23.4996,896,-0.00028033,0.0596063,5817.24,0.0291244
0.278264,-1.73087,3076.38,7.9408e-05,0.382367,0.0153594,0.662057,0.0391779,206.294,21.5338,0.584886,0.236174,5.52664,23.6981,884,0.000791538,0.06157,6266.03,0.0289043
0.280836,-1.75294,3155.49,-0.000417883,0.378282,0.0153027,0.705824,0.0388929,219.094,20.8392,0.607443,0.23628,5.68186,23.9956,870,-0.000127676,0.0625505,6479.16,0.0292324
0.28335,-1.77556,3237.48,0.000214824,0.371394,0.015201,0.739815,0.0381891,230.917,19.0531,0.631944,0.236754,5.83236,24.4157,858,0.00133714,0.0662527,7163.49,0.0291404
0.285827,-1.79733,3317.23,-6.15142e-05,0.376989,0.0152282,0.76077,0.0398799,244.62,17.5977,0.653806,0.237821,6.00719,24.2639,851,-0.000369478,0.0673394,7480.94,0.0291712
0.288291,-1.81969,3400.44,0.000305854,0.354225,0.0148104,0.805749,0.0373658,256.188,16.8665,0.671707,0.238202,6.21496,24.4143,844,-0.00150362,0.0717715,8491.99,0.0292208
0.290706,-1.84439,3493.49,-1.08332e-05,0.341435,0.0145695,0.849945,0.0360683,270.725,15.4823,0.693102,0.238497,6.4348,24.4728,837,0.000285602,0.0731799,8844.87,0.0293261
0.293078,-1.86777,3582.47,-0.000157631,0.337845,0.014479,0.873808,0.0360993,282.299,14.7001,0.708172,0.239653,6.65024,24.5067,827,-0.000326113,0.076949,9698.39,0.0292671
0.295435,-1.8919,3675.72,0.000121946,0.332745,0.0143221,0.919655,0.0362495,297.352,14.2034,0.726429,0.240359,6.93607,24.4521,811,0.000767427,0.0802593,10813.3,0.0292704
0.297752,-1.91783,3777.32,-2.73821e-05,0.317376,0.0140115,0.971553,0.0346414,310.888,12.5882,0.747524,0.240975,7.24951,24.6773,799,0.000163493,0.0843641,11824.1,0.0293468
0.300023,-1.94428,3882.95,0.000123267,0.317457,0.0140193,1.0808,0.0348622,323.207,12.1986,0.759549,0.241862,7.57531,25.2309,794,-0.000411289,0.0891564,13335.4,0.0296017
0.302194,-1.97132,3992.43,-0.000113711,0.301922,0.0136812,1.19152,0.0333183,335.715,11.0035,0.777256,0.242488,7.9425,25.1781,790,0.00379651,0.0951524,15428.6,0.0298253
0.304275,-1.99913,4106.31,-1.99258e-06,0.29519,0.0134894,1.28335,0.0331235,348.955,9.96676,0.790576,0.243442,8.35261,25.0891,783,-0.000216195,0.103066,17983.7,0.029719
0.306295,-2.02793,4226.08,-2.93508e-05,0.289064,0.0133378,1.39629,0.0327421,362.031,9.222,0.802058,0.24431,8.82742,25.4198,777,-0.00211485,0.112784,21409.9,0.0296671
0.308244,-2.05626,4345.46,0.000218583,0.274338,0.01303,1.49855,0.0309729,374.415,8.32681,0.815601,0.24502,9.34577,25.5678,770,0.000662113,0.121771,25243.9,0.0297382
0.310138,-2.08761,4479.44,0.000185436,0.261225,0.0126979,1.60814,0.0298101,389.142,7.95901,0.823971,0.24598,9.98323,25.7138,762,0.00216236,0.13644,31912.2,0.0297306
0.311977,-2.11829,4612.58,-0.000254695,0.256627,0.012536,1.72467,0.0298578,403.082,7.07292,0.834379,0.246946,10.6633,26.5994,757,0.000472127,0.149339,38065.7,0.0296394
0.313764,-2.1503,4753.33,7.78405e-05,0.248814,0.0123664,1.82968,0.0289342,418.159,6.17411,0.845428,0.24738,11.3194,26.6858,753,0.000411725,0.166166,47841.3,0.0296115
0.315508,-2.18465,4906.82,-4.50328e-05,0.235186,0.0119777,1.94896,0.0278521,434.437,5.70641,0.853128,0.248015,12.1075,27.1473,745,-0.00185342,0.184943,58852.6,0.0294328
0.317207,-2.21947,5064.34,-0.000204718,0.222504,0.0116607,2.02144,0.026414,451.813,4.95241,0.863088,0.24846,12.8949,27.0864,736,-0.00312907,0.207861,73154.1,0.0292855
0.318885,-2.25348,5220.24,1.18371e-05,0.214663,0.0114295,2.05186,0.0257958,468.637,4.20704,0.872098,0.248961,13.6678,27.6296,731,0.00133917,0.225513,87026.9,0.0290871
0.320559,-2.28678,5375.33,-0.00029514,0.211774,0.0113931,2.10221,0.0252781,488.14,3.96058,0.875566,0.249246,14.4256,27.6634,724,0.00378733,0.248855,105598,0.0290027
0.322222,-2.31969,5529.92,0.000162989,0.199028,0.0110803,2.05712,0.0236213,506.275,3.31636,0.884471,0.249463,15.1674,28.1058,714,-0.000640973,0.264329,120613,0.0287425
0.323911,-2.35158,5681.75,-2.41684e-05,0.179196,0.0105109,2.00421,0.0213992,523.168,2.88943,0.890714,0.24961,15.8705,28.4961,706,-0.00104121,0.291164,144400,0.0285627
